# TOPAS Version: 3.9
# Parameter File: simulacao.txt
# Results for Scorer: HistogramaDose1
# Scored in component: Microtitulacao
# Cumulative Volume Histogram over number of voxels: 1000
"# BinNumber, LowerLimit of DoseToMedium ( Gy ), Value"
"0, 0, 1"
"1, 0.001, 0"
"2, 0.002, 0"
"3, 0.003, 0"
"4, 0.004, 0"
"5, 0.005, 0"
"6, 0.006, 0"
"7, 0.007, 0"
"8, 0.008, 0"
"9, 0.009000000000000001, 0"
"10, 0.01, 0"
"11, 0.011, 0"
"12, 0.012, 0"
"13, 0.013, 0"
"14, 0.014, 0"
"15, 0.015, 0"
"16, 0.016, 0"
"17, 0.017, 0"
"18, 0.018, 0"
"19, 0.019, 0"
"20, 0.02, 0"
"21, 0.021, 0"
"22, 0.022, 0"
"23, 0.023, 0"
"24, 0.024, 0"
"25, 0.025, 0"
"26, 0.026, 0"
"27, 0.027, 0"
"28, 0.028, 0"
"29, 0.029, 0"
"30, 0.03, 0"
"31, 0.031, 0"
"32, 0.032, 0"
"33, 0.033, 0"
"34, 0.034, 0"
"35, 0.035, 0"
"36, 0.036, 0"
"37, 0.037, 0"
"38, 0.038, 0"
"39, 0.039, 0"
"40, 0.04, 0"
"41, 0.041, 0"
"42, 0.042, 0"
"43, 0.043, 0"
"44, 0.044, 0"
"45, 0.045, 0"
"46, 0.046, 0"
"47, 0.047, 0"
"48, 0.048, 0"
"49, 0.049, 0"
"50, 0.05, 0"
"51, 0.051, 0"
"52, 0.052, 0"
"53, 0.053, 0"
"54, 0.054, 0"
"55, 0.055, 0"
"56, 0.056, 0"
"57, 0.057, 0"
"58, 0.058, 0"
"59, 0.059, 0"
"60, 0.06, 0"
"61, 0.061, 0"
"62, 0.062, 0"
"63, 0.063, 0"
"64, 0.064, 0"
"65, 0.065, 0"
"66, 0.066, 0"
"67, 0.067, 0"
"68, 0.068, 0"
"69, 0.06900000000000001, 0"
"70, 0.07000000000000001, 0"
"71, 0.07100000000000001, 0"
"72, 0.07200000000000001, 0"
"73, 0.073, 0"
"74, 0.074, 0"
"75, 0.075, 0"
"76, 0.076, 0"
"77, 0.077, 0"
"78, 0.078, 0"
"79, 0.079, 0"
"80, 0.08, 0"
"81, 0.081, 0"
"82, 0.082, 0"
"83, 0.083, 0"
"84, 0.08400000000000001, 0"
"85, 0.08500000000000001, 0"
"86, 0.08600000000000001, 0"
"87, 0.08700000000000001, 0"
"88, 0.08799999999999999, 0"
"89, 0.089, 0"
"90, 0.09, 0"
"91, 0.091, 0"
"92, 0.092, 0"
"93, 0.093, 0"
"94, 0.094, 0"
"95, 0.095, 0"
"96, 0.096, 0"
"97, 0.097, 0"
"98, 0.098, 0"
"99, 0.099, 0"
# Parameter File: simulacao.txt
# Results for scorer: HistogramaDose1
# Scored in component: Microtitulacao
# X in 10 bins of 0.8518 cm
# Y in 20 bins of 0.6288 cm
# Z in 5 bins of 0.2896 cm
# DoseToMedium ( Gy ) : Sum
"0, 0, 0, 0"
"0, 0, 1, 0"
"0, 0, 2, 0"
"0, 0, 3, 0"
"0, 0, 4, 0"
"0, 1, 0, 0"
"0, 1, 1, 0"
"0, 1, 2, 0"
"0, 1, 3, 0"
"0, 1, 4, 0"
"0, 2, 0, 0"
"0, 2, 1, 0"
"0, 2, 2, 0"
"0, 2, 3, 0"
"0, 2, 4, 0"
"0, 3, 0, 0"
"0, 3, 1, 0"
"0, 3, 2, 0"
"0, 3, 3, 0"
"0, 3, 4, 0"
"0, 4, 0, 0"
"0, 4, 1, 0"
"0, 4, 2, 0"
"0, 4, 3, 0"
"0, 4, 4, 0"
"0, 5, 0, 0"
"0, 5, 1, 0"
"0, 5, 2, 0"
"0, 5, 3, 0"
"0, 5, 4, 0"
"0, 6, 0, 0"
"0, 6, 1, 0"
"0, 6, 2, 0"
"0, 6, 3, 0"
"0, 6, 4, 0"
"0, 7, 0, 0"
"0, 7, 1, 0"
"0, 7, 2, 0"
"0, 7, 3, 0"
"0, 7, 4, 0"
"0, 8, 0, 0"
"0, 8, 1, 0"
"0, 8, 2, 0"
"0, 8, 3, 0"
"0, 8, 4, 0"
"0, 9, 0, 0"
"0, 9, 1, 0"
"0, 9, 2, 0"
"0, 9, 3, 0"
"0, 9, 4, 0"
"0, 10, 0, 0"
"0, 10, 1, 0"
"0, 10, 2, 0"
"0, 10, 3, 0"
"0, 10, 4, 0"
"0, 11, 0, 0"
"0, 11, 1, 0"
"0, 11, 2, 0"
"0, 11, 3, 0"
"0, 11, 4, 0"
"0, 12, 0, 0"
"0, 12, 1, 0"
"0, 12, 2, 0"
"0, 12, 3, 0"
"0, 12, 4, 0"
"0, 13, 0, 0"
"0, 13, 1, 0"
"0, 13, 2, 0"
"0, 13, 3, 0"
"0, 13, 4, 0"
"0, 14, 0, 0"
"0, 14, 1, 0"
"0, 14, 2, 0"
"0, 14, 3, 0"
"0, 14, 4, 0"
"0, 15, 0, 0"
"0, 15, 1, 0"
"0, 15, 2, 0"
"0, 15, 3, 0"
"0, 15, 4, 0"
"0, 16, 0, 0"
"0, 16, 1, 0"
"0, 16, 2, 0"
"0, 16, 3, 0"
"0, 16, 4, 0"
"0, 17, 0, 0"
"0, 17, 1, 0"
"0, 17, 2, 0"
"0, 17, 3, 0"
"0, 17, 4, 0"
"0, 18, 0, 0"
"0, 18, 1, 0"
"0, 18, 2, 0"
"0, 18, 3, 0"
"0, 18, 4, 0"
"0, 19, 0, 0"
"0, 19, 1, 0"
"0, 19, 2, 0"
"0, 19, 3, 0"
"0, 19, 4, 0"
"1, 0, 0, 0"
"1, 0, 1, 0"
"1, 0, 2, 0"
"1, 0, 3, 0"
"1, 0, 4, 0"
"1, 1, 0, 0"
"1, 1, 1, 0"
"1, 1, 2, 0"
"1, 1, 3, 0"
"1, 1, 4, 0"
"1, 2, 0, 0"
"1, 2, 1, 0"
"1, 2, 2, 0"
"1, 2, 3, 0"
"1, 2, 4, 0"
"1, 3, 0, 0"
"1, 3, 1, 0"
"1, 3, 2, 0"
"1, 3, 3, 0"
"1, 3, 4, 0"
"1, 4, 0, 0"
"1, 4, 1, 0"
"1, 4, 2, 0"
"1, 4, 3, 0"
"1, 4, 4, 0"
"1, 5, 0, 0"
"1, 5, 1, 0"
"1, 5, 2, 0"
"1, 5, 3, 0"
"1, 5, 4, 0"
"1, 6, 0, 0"
"1, 6, 1, 0"
"1, 6, 2, 0"
"1, 6, 3, 0"
"1, 6, 4, 0"
"1, 7, 0, 0"
"1, 7, 1, 0"
"1, 7, 2, 0"
"1, 7, 3, 0"
"1, 7, 4, 0"
"1, 8, 0, 0"
"1, 8, 1, 0"
"1, 8, 2, 0"
"1, 8, 3, 0"
"1, 8, 4, 0"
"1, 9, 0, 0"
"1, 9, 1, 0"
"1, 9, 2, 0"
"1, 9, 3, 0"
"1, 9, 4, 0"
"1, 10, 0, 0"
"1, 10, 1, 0"
"1, 10, 2, 0"
"1, 10, 3, 0"
"1, 10, 4, 0"
"1, 11, 0, 0"
"1, 11, 1, 0"
"1, 11, 2, 0"
"1, 11, 3, 0"
"1, 11, 4, 0"
"1, 12, 0, 0"
"1, 12, 1, 0"
"1, 12, 2, 0"
"1, 12, 3, 0"
"1, 12, 4, 0"
"1, 13, 0, 0"
"1, 13, 1, 0"
"1, 13, 2, 0"
"1, 13, 3, 0"
"1, 13, 4, 0"
"1, 14, 0, 0"
"1, 14, 1, 0"
"1, 14, 2, 0"
"1, 14, 3, 0"
"1, 14, 4, 0"
"1, 15, 0, 0"
"1, 15, 1, 0"
"1, 15, 2, 0"
"1, 15, 3, 0"
"1, 15, 4, 0"
"1, 16, 0, 0"
"1, 16, 1, 0"
"1, 16, 2, 0"
"1, 16, 3, 0"
"1, 16, 4, 0"
"1, 17, 0, 0"
"1, 17, 1, 0"
"1, 17, 2, 0"
"1, 17, 3, 0"
"1, 17, 4, 0"
"1, 18, 0, 0"
"1, 18, 1, 0"
"1, 18, 2, 0"
"1, 18, 3, 0"
"1, 18, 4, 0"
"1, 19, 0, 0"
"1, 19, 1, 0"
"1, 19, 2, 0"
"1, 19, 3, 0"
"1, 19, 4, 0"
"2, 0, 0, 0"
"2, 0, 1, 0"
"2, 0, 2, 0"
"2, 0, 3, 0"
"2, 0, 4, 0"
"2, 1, 0, 0"
"2, 1, 1, 0"
"2, 1, 2, 0"
"2, 1, 3, 0"
"2, 1, 4, 0"
"2, 2, 0, 0"
"2, 2, 1, 0"
"2, 2, 2, 0"
"2, 2, 3, 0"
"2, 2, 4, 0"
"2, 3, 0, 0"
"2, 3, 1, 0"
"2, 3, 2, 0"
"2, 3, 3, 0"
"2, 3, 4, 0"
"2, 4, 0, 0"
"2, 4, 1, 0"
"2, 4, 2, 0"
"2, 4, 3, 0"
"2, 4, 4, 0"
"2, 5, 0, 0"
"2, 5, 1, 0"
"2, 5, 2, 0"
"2, 5, 3, 0"
"2, 5, 4, 0"
"2, 6, 0, 0"
"2, 6, 1, 0"
"2, 6, 2, 0"
"2, 6, 3, 0"
"2, 6, 4, 0"
"2, 7, 0, 0"
"2, 7, 1, 0"
"2, 7, 2, 0"
"2, 7, 3, 0"
"2, 7, 4, 0"
"2, 8, 0, 0"
"2, 8, 1, 0"
"2, 8, 2, 0"
"2, 8, 3, 0"
"2, 8, 4, 0"
"2, 9, 0, 0"
"2, 9, 1, 0"
"2, 9, 2, 0"
"2, 9, 3, 0"
"2, 9, 4, 0"
"2, 10, 0, 0"
"2, 10, 1, 0"
"2, 10, 2, 0"
"2, 10, 3, 0"
"2, 10, 4, 0"
"2, 11, 0, 0"
"2, 11, 1, 0"
"2, 11, 2, 0"
"2, 11, 3, 0"
"2, 11, 4, 0"
"2, 12, 0, 0"
"2, 12, 1, 0"
"2, 12, 2, 0"
"2, 12, 3, 0"
"2, 12, 4, 0"
"2, 13, 0, 0"
"2, 13, 1, 0"
"2, 13, 2, 0"
"2, 13, 3, 0"
"2, 13, 4, 0"
"2, 14, 0, 0"
"2, 14, 1, 0"
"2, 14, 2, 0"
"2, 14, 3, 0"
"2, 14, 4, 0"
"2, 15, 0, 0"
"2, 15, 1, 0"
"2, 15, 2, 0"
"2, 15, 3, 0"
"2, 15, 4, 0"
"2, 16, 0, 0"
"2, 16, 1, 0"
"2, 16, 2, 0"
"2, 16, 3, 0"
"2, 16, 4, 0"
"2, 17, 0, 0"
"2, 17, 1, 0"
"2, 17, 2, 0"
"2, 17, 3, 0"
"2, 17, 4, 0"
"2, 18, 0, 0"
"2, 18, 1, 0"
"2, 18, 2, 0"
"2, 18, 3, 0"
"2, 18, 4, 0"
"2, 19, 0, 0"
"2, 19, 1, 0"
"2, 19, 2, 0"
"2, 19, 3, 0"
"2, 19, 4, 0"
"3, 0, 0, 0"
"3, 0, 1, 0"
"3, 0, 2, 0"
"3, 0, 3, 0"
"3, 0, 4, 0"
"3, 1, 0, 0"
"3, 1, 1, 0"
"3, 1, 2, 9.134815300015919e-14"
"3, 1, 3, 0"
"3, 1, 4, 0"
"3, 2, 0, 0"
"3, 2, 1, 0"
"3, 2, 2, 0"
"3, 2, 3, 0"
"3, 2, 4, 0"
"3, 3, 0, 0"
"3, 3, 1, 0"
"3, 3, 2, 0"
"3, 3, 3, 0"
"3, 3, 4, 0"
"3, 4, 0, 0"
"3, 4, 1, 0"
"3, 4, 2, 0"
"3, 4, 3, 0"
"3, 4, 4, 0"
"3, 5, 0, 0"
"3, 5, 1, 0"
"3, 5, 2, 0"
"3, 5, 3, 0"
"3, 5, 4, 0"
"3, 6, 0, 0"
"3, 6, 1, 0"
"3, 6, 2, 0"
"3, 6, 3, 0"
"3, 6, 4, 0"
"3, 7, 0, 0"
"3, 7, 1, 0"
"3, 7, 2, 0"
"3, 7, 3, 0"
"3, 7, 4, 0"
"3, 8, 0, 0"
"3, 8, 1, 0"
"3, 8, 2, 0"
"3, 8, 3, 0"
"3, 8, 4, 0"
"3, 9, 0, 0"
"3, 9, 1, 0"
"3, 9, 2, 0"
"3, 9, 3, 0"
"3, 9, 4, 0"
"3, 10, 0, 0"
"3, 10, 1, 0"
"3, 10, 2, 0"
"3, 10, 3, 0"
"3, 10, 4, 0"
"3, 11, 0, 0"
"3, 11, 1, 0"
"3, 11, 2, 0"
"3, 11, 3, 0"
"3, 11, 4, 0"
"3, 12, 0, 0"
"3, 12, 1, 0"
"3, 12, 2, 0"
"3, 12, 3, 0"
"3, 12, 4, 0"
"3, 13, 0, 0"
"3, 13, 1, 0"
"3, 13, 2, 0"
"3, 13, 3, 0"
"3, 13, 4, 0"
"3, 14, 0, 0"
"3, 14, 1, 0"
"3, 14, 2, 0"
"3, 14, 3, 0"
"3, 14, 4, 0"
"3, 15, 0, 0"
"3, 15, 1, 0"
"3, 15, 2, 0"
"3, 15, 3, 0"
"3, 15, 4, 0"
"3, 16, 0, 0"
"3, 16, 1, 0"
"3, 16, 2, 0"
"3, 16, 3, 0"
"3, 16, 4, 0"
"3, 17, 0, 0"
"3, 17, 1, 0"
"3, 17, 2, 0"
"3, 17, 3, 0"
"3, 17, 4, 0"
"3, 18, 0, 0"
"3, 18, 1, 0"
"3, 18, 2, 0"
"3, 18, 3, 0"
"3, 18, 4, 0"
"3, 19, 0, 0"
"3, 19, 1, 0"
"3, 19, 2, 0"
"3, 19, 3, 0"
"3, 19, 4, 0"
"4, 0, 0, 0"
"4, 0, 1, 0"
"4, 0, 2, 0"
"4, 0, 3, 0"
"4, 0, 4, 0"
"4, 1, 0, 0"
"4, 1, 1, 0"
"4, 1, 2, 0"
"4, 1, 3, 0"
"4, 1, 4, 0"
"4, 2, 0, 0"
"4, 2, 1, 0"
"4, 2, 2, 0"
"4, 2, 3, 0"
"4, 2, 4, 0"
"4, 3, 0, 0"
"4, 3, 1, 0"
"4, 3, 2, 0"
"4, 3, 3, 0"
"4, 3, 4, 0"
"4, 4, 0, 0"
"4, 4, 1, 0"
"4, 4, 2, 0"
"4, 4, 3, 0"
"4, 4, 4, 0"
"4, 5, 0, 0"
"4, 5, 1, 0"
"4, 5, 2, 0"
"4, 5, 3, 0"
"4, 5, 4, 0"
"4, 6, 0, 0"
"4, 6, 1, 0"
"4, 6, 2, 0"
"4, 6, 3, 0"
"4, 6, 4, 0"
"4, 7, 0, 0"
"4, 7, 1, 0"
"4, 7, 2, 0"
"4, 7, 3, 0"
"4, 7, 4, 0"
"4, 8, 0, 0"
"4, 8, 1, 0"
"4, 8, 2, 0"
"4, 8, 3, 0"
"4, 8, 4, 0"
"4, 9, 0, 0"
"4, 9, 1, 0"
"4, 9, 2, 0"
"4, 9, 3, 0"
"4, 9, 4, 0"
"4, 10, 0, 0"
"4, 10, 1, 0"
"4, 10, 2, 0"
"4, 10, 3, 0"
"4, 10, 4, 0"
"4, 11, 0, 0"
"4, 11, 1, 0"
"4, 11, 2, 0"
"4, 11, 3, 0"
"4, 11, 4, 0"
"4, 12, 0, 0"
"4, 12, 1, 0"
"4, 12, 2, 0"
"4, 12, 3, 0"
"4, 12, 4, 0"
"4, 13, 0, 0"
"4, 13, 1, 0"
"4, 13, 2, 0"
"4, 13, 3, 0"
"4, 13, 4, 0"
"4, 14, 0, 0"
"4, 14, 1, 0"
"4, 14, 2, 0"
"4, 14, 3, 0"
"4, 14, 4, 0"
"4, 15, 0, 0"
"4, 15, 1, 0"
"4, 15, 2, 0"
"4, 15, 3, 0"
"4, 15, 4, 0"
"4, 16, 0, 0"
"4, 16, 1, 0"
"4, 16, 2, 0"
"4, 16, 3, 0"
"4, 16, 4, 0"
"4, 17, 0, 0"
"4, 17, 1, 0"
"4, 17, 2, 0"
"4, 17, 3, 0"
"4, 17, 4, 0"
"4, 18, 0, 0"
"4, 18, 1, 0"
"4, 18, 2, 0"
"4, 18, 3, 0"
"4, 18, 4, 0"
"4, 19, 0, 0"
"4, 19, 1, 0"
"4, 19, 2, 0"
"4, 19, 3, 0"
"4, 19, 4, 0"
"5, 0, 0, 0"
"5, 0, 1, 0"
"5, 0, 2, 0"
"5, 0, 3, 0"
"5, 0, 4, 0"
"5, 1, 0, 0"
"5, 1, 1, 0"
"5, 1, 2, 0"
"5, 1, 3, 0"
"5, 1, 4, 0"
"5, 2, 0, 0"
"5, 2, 1, 0"
"5, 2, 2, 0"
"5, 2, 3, 0"
"5, 2, 4, 0"
"5, 3, 0, 0"
"5, 3, 1, 0"
"5, 3, 2, 0"
"5, 3, 3, 0"
"5, 3, 4, 0"
"5, 4, 0, 0"
"5, 4, 1, 0"
"5, 4, 2, 0"
"5, 4, 3, 0"
"5, 4, 4, 0"
"5, 5, 0, 0"
"5, 5, 1, 0"
"5, 5, 2, 0"
"5, 5, 3, 0"
"5, 5, 4, 0"
"5, 6, 0, 0"
"5, 6, 1, 0"
"5, 6, 2, 0"
"5, 6, 3, 0"
"5, 6, 4, 0"
"5, 7, 0, 0"
"5, 7, 1, 0"
"5, 7, 2, 0"
"5, 7, 3, 0"
"5, 7, 4, 0"
"5, 8, 0, 0"
"5, 8, 1, 0"
"5, 8, 2, 0"
"5, 8, 3, 0"
"5, 8, 4, 0"
"5, 9, 0, 0"
"5, 9, 1, 0"
"5, 9, 2, 0"
"5, 9, 3, 6.329398116733387e-10"
"5, 9, 4, 2.530550491375294e-10"
"5, 10, 0, 0"
"5, 10, 1, 0"
"5, 10, 2, 0"
"5, 10, 3, 0"
"5, 10, 4, 0"
"5, 11, 0, 0"
"5, 11, 1, 0"
"5, 11, 2, 0"
"5, 11, 3, 0"
"5, 11, 4, 0"
"5, 12, 0, 0"
"5, 12, 1, 0"
"5, 12, 2, 0"
"5, 12, 3, 0"
"5, 12, 4, 0"
"5, 13, 0, 0"
"5, 13, 1, 0"
"5, 13, 2, 0"
"5, 13, 3, 0"
"5, 13, 4, 0"
"5, 14, 0, 0"
"5, 14, 1, 0"
"5, 14, 2, 0"
"5, 14, 3, 0"
"5, 14, 4, 0"
"5, 15, 0, 0"
"5, 15, 1, 0"
"5, 15, 2, 0"
"5, 15, 3, 0"
"5, 15, 4, 0"
"5, 16, 0, 0"
"5, 16, 1, 0"
"5, 16, 2, 0"
"5, 16, 3, 0"
"5, 16, 4, 0"
"5, 17, 0, 2.184084441081424e-10"
"5, 17, 1, 4.407302023334836e-10"
"5, 17, 2, 4.454451252300373e-10"
"5, 17, 3, 0"
"5, 17, 4, 0"
"5, 18, 0, 3.16663528732164e-10"
"5, 18, 1, 0"
"5, 18, 2, 0"
"5, 18, 3, 0"
"5, 18, 4, 0"
"5, 19, 0, 0"
"5, 19, 1, 0"
"5, 19, 2, 0"
"5, 19, 3, 0"
"5, 19, 4, 0"
"6, 0, 0, 0"
"6, 0, 1, 0"
"6, 0, 2, 0"
"6, 0, 3, 0"
"6, 0, 4, 0"
"6, 1, 0, 0"
"6, 1, 1, 0"
"6, 1, 2, 0"
"6, 1, 3, 0"
"6, 1, 4, 0"
"6, 2, 0, 0"
"6, 2, 1, 0"
"6, 2, 2, 0"
"6, 2, 3, 0"
"6, 2, 4, 0"
"6, 3, 0, 0"
"6, 3, 1, 0"
"6, 3, 2, 0"
"6, 3, 3, 0"
"6, 3, 4, 0"
"6, 4, 0, 0"
"6, 4, 1, 0"
"6, 4, 2, 0"
"6, 4, 3, 0"
"6, 4, 4, 0"
"6, 5, 0, 0"
"6, 5, 1, 0"
"6, 5, 2, 0"
"6, 5, 3, 0"
"6, 5, 4, 0"
"6, 6, 0, 0"
"6, 6, 1, 0"
"6, 6, 2, 0"
"6, 6, 3, 0"
"6, 6, 4, 0"
"6, 7, 0, 0"
"6, 7, 1, 0"
"6, 7, 2, 0"
"6, 7, 3, 0"
"6, 7, 4, 0"
"6, 8, 0, 0"
"6, 8, 1, 0"
"6, 8, 2, 0"
"6, 8, 3, 0"
"6, 8, 4, 0"
"6, 9, 0, 5.464204089200564e-10"
"6, 9, 1, 0"
"6, 9, 2, 0"
"6, 9, 3, 0"
"6, 9, 4, 0"
"6, 10, 0, 3.462398701081781e-10"
"6, 10, 1, 7.797059109471149e-10"
"6, 10, 2, 4.18760026654752e-10"
"6, 10, 3, 0"
"6, 10, 4, 0"
"6, 11, 0, 0"
"6, 11, 1, 0"
"6, 11, 2, 0"
"6, 11, 3, 0"
"6, 11, 4, 0"
"6, 12, 0, 0"
"6, 12, 1, 0"
"6, 12, 2, 0"
"6, 12, 3, 0"
"6, 12, 4, 0"
"6, 13, 0, 0"
"6, 13, 1, 0"
"6, 13, 2, 0"
"6, 13, 3, 0"
"6, 13, 4, 0"
"6, 14, 0, 0"
"6, 14, 1, 0"
"6, 14, 2, 0"
"6, 14, 3, 0"
"6, 14, 4, 0"
"6, 15, 0, 0"
"6, 15, 1, 0"
"6, 15, 2, 0"
"6, 15, 3, 0"
"6, 15, 4, 0"
"6, 16, 0, 0"
"6, 16, 1, 0"
"6, 16, 2, 0"
"6, 16, 3, 0"
"6, 16, 4, 0"
"6, 17, 0, 0"
"6, 17, 1, 0"
"6, 17, 2, 0"
"6, 17, 3, 0"
"6, 17, 4, 0"
"6, 18, 0, 0"
"6, 18, 1, 0"
"6, 18, 2, 0"
"6, 18, 3, 0"
"6, 18, 4, 0"
"6, 19, 0, 0"
"6, 19, 1, 0"
"6, 19, 2, 0"
"6, 19, 3, 0"
"6, 19, 4, 0"
"7, 0, 0, 0"
"7, 0, 1, 0"
"7, 0, 2, 0"
"7, 0, 3, 0"
"7, 0, 4, 0"
"7, 1, 0, 0"
"7, 1, 1, 0"
"7, 1, 2, 0"
"7, 1, 3, 0"
"7, 1, 4, 0"
"7, 2, 0, 0"
"7, 2, 1, 0"
"7, 2, 2, 0"
"7, 2, 3, 0"
"7, 2, 4, 0"
"7, 3, 0, 0"
"7, 3, 1, 0"
"7, 3, 2, 0"
"7, 3, 3, 0"
"7, 3, 4, 0"
"7, 4, 0, 0"
"7, 4, 1, 0"
"7, 4, 2, 0"
"7, 4, 3, 0"
"7, 4, 4, 0"
"7, 5, 0, 0"
"7, 5, 1, 0"
"7, 5, 2, 0"
"7, 5, 3, 0"
"7, 5, 4, 0"
"7, 6, 0, 0"
"7, 6, 1, 0"
"7, 6, 2, 0"
"7, 6, 3, 0"
"7, 6, 4, 0"
"7, 7, 0, 0"
"7, 7, 1, 0"
"7, 7, 2, 0"
"7, 7, 3, 0"
"7, 7, 4, 0"
"7, 8, 0, 0"
"7, 8, 1, 0"
"7, 8, 2, 0"
"7, 8, 3, 0"
"7, 8, 4, 0"
"7, 9, 0, 0"
"7, 9, 1, 0"
"7, 9, 2, 0"
"7, 9, 3, 0"
"7, 9, 4, 0"
"7, 10, 0, 0"
"7, 10, 1, 0"
"7, 10, 2, 0"
"7, 10, 3, 0"
"7, 10, 4, 0"
"7, 11, 0, 0"
"7, 11, 1, 0"
"7, 11, 2, 0"
"7, 11, 3, 0"
"7, 11, 4, 0"
"7, 12, 0, 0"
"7, 12, 1, 0"
"7, 12, 2, 0"
"7, 12, 3, 0"
"7, 12, 4, 0"
"7, 13, 0, 0"
"7, 13, 1, 0"
"7, 13, 2, 0"
"7, 13, 3, 0"
"7, 13, 4, 0"
"7, 14, 0, 0"
"7, 14, 1, 0"
"7, 14, 2, 0"
"7, 14, 3, 0"
"7, 14, 4, 0"
"7, 15, 0, 0"
"7, 15, 1, 0"
"7, 15, 2, 0"
"7, 15, 3, 0"
"7, 15, 4, 0"
"7, 16, 0, 0"
"7, 16, 1, 0"
"7, 16, 2, 0"
"7, 16, 3, 0"
"7, 16, 4, 0"
"7, 17, 0, 0"
"7, 17, 1, 0"
"7, 17, 2, 0"
"7, 17, 3, 0"
"7, 17, 4, 0"
"7, 18, 0, 0"
"7, 18, 1, 0"
"7, 18, 2, 0"
"7, 18, 3, 0"
"7, 18, 4, 0"
"7, 19, 0, 0"
"7, 19, 1, 0"
"7, 19, 2, 0"
"7, 19, 3, 0"
"7, 19, 4, 0"
"8, 0, 0, 0"
"8, 0, 1, 0"
"8, 0, 2, 0"
"8, 0, 3, 0"
"8, 0, 4, 0"
"8, 1, 0, 0"
"8, 1, 1, 0"
"8, 1, 2, 0"
"8, 1, 3, 0"
"8, 1, 4, 0"
"8, 2, 0, 0"
"8, 2, 1, 0"
"8, 2, 2, 0"
"8, 2, 3, 0"
"8, 2, 4, 0"
"8, 3, 0, 0"
"8, 3, 1, 0"
"8, 3, 2, 0"
"8, 3, 3, 0"
"8, 3, 4, 0"
"8, 4, 0, 0"
"8, 4, 1, 0"
"8, 4, 2, 0"
"8, 4, 3, 0"
"8, 4, 4, 0"
"8, 5, 0, 0"
"8, 5, 1, 0"
"8, 5, 2, 0"
"8, 5, 3, 0"
"8, 5, 4, 0"
"8, 6, 0, 0"
"8, 6, 1, 0"
"8, 6, 2, 0"
"8, 6, 3, 0"
"8, 6, 4, 0"
"8, 7, 0, 0"
"8, 7, 1, 0"
"8, 7, 2, 0"
"8, 7, 3, 0"
"8, 7, 4, 0"
"8, 8, 0, 0"
"8, 8, 1, 0"
"8, 8, 2, 0"
"8, 8, 3, 0"
"8, 8, 4, 0"
"8, 9, 0, 0"
"8, 9, 1, 0"
"8, 9, 2, 0"
"8, 9, 3, 0"
"8, 9, 4, 0"
"8, 10, 0, 0"
"8, 10, 1, 0"
"8, 10, 2, 0"
"8, 10, 3, 0"
"8, 10, 4, 0"
"8, 11, 0, 0"
"8, 11, 1, 0"
"8, 11, 2, 0"
"8, 11, 3, 0"
"8, 11, 4, 0"
"8, 12, 0, 0"
"8, 12, 1, 0"
"8, 12, 2, 0"
"8, 12, 3, 0"
"8, 12, 4, 0"
"8, 13, 0, 0"
"8, 13, 1, 0"
"8, 13, 2, 0"
"8, 13, 3, 0"
"8, 13, 4, 0"
"8, 14, 0, 0"
"8, 14, 1, 0"
"8, 14, 2, 0"
"8, 14, 3, 0"
"8, 14, 4, 0"
"8, 15, 0, 0"
"8, 15, 1, 0"
"8, 15, 2, 0"
"8, 15, 3, 0"
"8, 15, 4, 0"
"8, 16, 0, 0"
"8, 16, 1, 0"
"8, 16, 2, 0"
"8, 16, 3, 0"
"8, 16, 4, 0"
"8, 17, 0, 0"
"8, 17, 1, 0"
"8, 17, 2, 0"
"8, 17, 3, 0"
"8, 17, 4, 0"
"8, 18, 0, 0"
"8, 18, 1, 0"
"8, 18, 2, 0"
"8, 18, 3, 0"
"8, 18, 4, 0"
"8, 19, 0, 0"
"8, 19, 1, 0"
"8, 19, 2, 0"
"8, 19, 3, 0"
"8, 19, 4, 0"
"9, 0, 0, 0"
"9, 0, 1, 0"
"9, 0, 2, 0"
"9, 0, 3, 0"
"9, 0, 4, 0"
"9, 1, 0, 0"
"9, 1, 1, 0"
"9, 1, 2, 0"
"9, 1, 3, 0"
"9, 1, 4, 0"
"9, 2, 0, 0"
"9, 2, 1, 0"
"9, 2, 2, 0"
"9, 2, 3, 0"
"9, 2, 4, 0"
"9, 3, 0, 0"
"9, 3, 1, 0"
"9, 3, 2, 0"
"9, 3, 3, 0"
"9, 3, 4, 0"
"9, 4, 0, 0"
"9, 4, 1, 0"
"9, 4, 2, 0"
"9, 4, 3, 0"
"9, 4, 4, 0"
"9, 5, 0, 0"
"9, 5, 1, 0"
"9, 5, 2, 0"
"9, 5, 3, 0"
"9, 5, 4, 0"
"9, 6, 0, 0"
"9, 6, 1, 0"
"9, 6, 2, 0"
"9, 6, 3, 0"
"9, 6, 4, 0"
"9, 7, 0, 0"
"9, 7, 1, 0"
"9, 7, 2, 0"
"9, 7, 3, 0"
"9, 7, 4, 0"
"9, 8, 0, 0"
"9, 8, 1, 0"
"9, 8, 2, 0"
"9, 8, 3, 0"
"9, 8, 4, 0"
"9, 9, 0, 0"
"9, 9, 1, 0"
"9, 9, 2, 0"
"9, 9, 3, 0"
"9, 9, 4, 0"
"9, 10, 0, 0"
"9, 10, 1, 0"
"9, 10, 2, 0"
"9, 10, 3, 0"
"9, 10, 4, 0"
"9, 11, 0, 0"
"9, 11, 1, 0"
"9, 11, 2, 0"
"9, 11, 3, 0"
"9, 11, 4, 0"
"9, 12, 0, 0"
"9, 12, 1, 0"
"9, 12, 2, 0"
"9, 12, 3, 0"
"9, 12, 4, 0"
"9, 13, 0, 0"
"9, 13, 1, 0"
"9, 13, 2, 0"
"9, 13, 3, 0"
"9, 13, 4, 0"
"9, 14, 0, 0"
"9, 14, 1, 0"
"9, 14, 2, 0"
"9, 14, 3, 0"
"9, 14, 4, 0"
"9, 15, 0, 0"
"9, 15, 1, 0"
"9, 15, 2, 0"
"9, 15, 3, 0"
"9, 15, 4, 0"
"9, 16, 0, 0"
"9, 16, 1, 0"
"9, 16, 2, 0"
"9, 16, 3, 0"
"9, 16, 4, 0"
"9, 17, 0, 0"
"9, 17, 1, 0"
"9, 17, 2, 0"
"9, 17, 3, 0"
"9, 17, 4, 0"
"9, 18, 0, 0"
"9, 18, 1, 0"
"9, 18, 2, 0"
"9, 18, 3, 0"
"9, 18, 4, 0"
"9, 19, 0, 0"
"9, 19, 1, 0"
"9, 19, 2, 0"
"9, 19, 3, 0"
"9, 19, 4, 0"
# Parameter File: simulacao.txt
# Results for Scorer: HistogramaDose11
# Scored in component: 11Microtitulacao
# Cumulative Volume Histogram over number of voxels: 1
"# BinNumber, LowerLimit of DoseToMedium ( Gy ), Value"
"0, 0, 1"
"1, 0.001, 0"
"2, 0.002, 0"
"3, 0.003, 0"
"4, 0.004, 0"
"5, 0.005, 0"
"6, 0.006, 0"
"7, 0.007, 0"
"8, 0.008, 0"
"9, 0.009000000000000001, 0"
"10, 0.01, 0"
"11, 0.011, 0"
"12, 0.012, 0"
"13, 0.013, 0"
"14, 0.014, 0"
"15, 0.015, 0"
"16, 0.016, 0"
"17, 0.017, 0"
"18, 0.018, 0"
"19, 0.019, 0"
"20, 0.02, 0"
"21, 0.021, 0"
"22, 0.022, 0"
"23, 0.023, 0"
"24, 0.024, 0"
"25, 0.025, 0"
"26, 0.026, 0"
"27, 0.027, 0"
"28, 0.028, 0"
"29, 0.029, 0"
"30, 0.03, 0"
"31, 0.031, 0"
"32, 0.032, 0"
"33, 0.033, 0"
"34, 0.034, 0"
"35, 0.035, 0"
"36, 0.036, 0"
"37, 0.037, 0"
"38, 0.038, 0"
"39, 0.039, 0"
"40, 0.04, 0"
"41, 0.041, 0"
"42, 0.042, 0"
"43, 0.043, 0"
"44, 0.044, 0"
"45, 0.045, 0"
"46, 0.046, 0"
"47, 0.047, 0"
"48, 0.048, 0"
"49, 0.049, 0"
"50, 0.05, 0"
"51, 0.051, 0"
"52, 0.052, 0"
"53, 0.053, 0"
"54, 0.054, 0"
"55, 0.055, 0"
"56, 0.056, 0"
"57, 0.057, 0"
"58, 0.058, 0"
"59, 0.059, 0"
"60, 0.06, 0"
"61, 0.061, 0"
"62, 0.062, 0"
"63, 0.063, 0"
"64, 0.064, 0"
"65, 0.065, 0"
"66, 0.066, 0"
"67, 0.067, 0"
"68, 0.068, 0"
"69, 0.06900000000000001, 0"
"70, 0.07000000000000001, 0"
"71, 0.07100000000000001, 0"
"72, 0.07200000000000001, 0"
"73, 0.073, 0"
"74, 0.074, 0"
"75, 0.075, 0"
"76, 0.076, 0"
"77, 0.077, 0"
"78, 0.078, 0"
"79, 0.079, 0"
"80, 0.08, 0"
"81, 0.081, 0"
"82, 0.082, 0"
"83, 0.083, 0"
"84, 0.08400000000000001, 0"
"85, 0.08500000000000001, 0"
"86, 0.08600000000000001, 0"
"87, 0.08700000000000001, 0"
"88, 0.08799999999999999, 0"
"89, 0.089, 0"
"90, 0.09, 0"
"91, 0.091, 0"
"92, 0.092, 0"
"93, 0.093, 0"
"94, 0.094, 0"
"95, 0.095, 0"
"96, 0.096, 0"
"97, 0.097, 0"
"98, 0.098, 0"
"99, 0.099, 0"
# Parameter File: simulacao.txt
# Results for scorer: HistogramaDose11
# Scored in component: 11Microtitulacao
# DoseToMedium ( Gy ) : Sum
1.473136391517971e-12
# Parameter File: simulacao.txt
# Results for Scorer: HistogramaDose12
# Scored in component: 12Microtitulacao
# Cumulative Volume Histogram over number of voxels: 1
"# BinNumber, LowerLimit of DoseToMedium ( Gy ), Value"
"0, 0, 1"
"1, 0.001, 0"
"2, 0.002, 0"
"3, 0.003, 0"
"4, 0.004, 0"
"5, 0.005, 0"
"6, 0.006, 0"
"7, 0.007, 0"
"8, 0.008, 0"
"9, 0.009000000000000001, 0"
"10, 0.01, 0"
"11, 0.011, 0"
"12, 0.012, 0"
"13, 0.013, 0"
"14, 0.014, 0"
"15, 0.015, 0"
"16, 0.016, 0"
"17, 0.017, 0"
"18, 0.018, 0"
"19, 0.019, 0"
"20, 0.02, 0"
"21, 0.021, 0"
"22, 0.022, 0"
"23, 0.023, 0"
"24, 0.024, 0"
"25, 0.025, 0"
"26, 0.026, 0"
"27, 0.027, 0"
"28, 0.028, 0"
"29, 0.029, 0"
"30, 0.03, 0"
"31, 0.031, 0"
"32, 0.032, 0"
"33, 0.033, 0"
"34, 0.034, 0"
"35, 0.035, 0"
"36, 0.036, 0"
"37, 0.037, 0"
"38, 0.038, 0"
"39, 0.039, 0"
"40, 0.04, 0"
"41, 0.041, 0"
"42, 0.042, 0"
"43, 0.043, 0"
"44, 0.044, 0"
"45, 0.045, 0"
"46, 0.046, 0"
"47, 0.047, 0"
"48, 0.048, 0"
"49, 0.049, 0"
"50, 0.05, 0"
"51, 0.051, 0"
"52, 0.052, 0"
"53, 0.053, 0"
"54, 0.054, 0"
"55, 0.055, 0"
"56, 0.056, 0"
"57, 0.057, 0"
"58, 0.058, 0"
"59, 0.059, 0"
"60, 0.06, 0"
"61, 0.061, 0"
"62, 0.062, 0"
"63, 0.063, 0"
"64, 0.064, 0"
"65, 0.065, 0"
"66, 0.066, 0"
"67, 0.067, 0"
"68, 0.068, 0"
"69, 0.06900000000000001, 0"
"70, 0.07000000000000001, 0"
"71, 0.07100000000000001, 0"
"72, 0.07200000000000001, 0"
"73, 0.073, 0"
"74, 0.074, 0"
"75, 0.075, 0"
"76, 0.076, 0"
"77, 0.077, 0"
"78, 0.078, 0"
"79, 0.079, 0"
"80, 0.08, 0"
"81, 0.081, 0"
"82, 0.082, 0"
"83, 0.083, 0"
"84, 0.08400000000000001, 0"
"85, 0.08500000000000001, 0"
"86, 0.08600000000000001, 0"
"87, 0.08700000000000001, 0"
"88, 0.08799999999999999, 0"
"89, 0.089, 0"
"90, 0.09, 0"
"91, 0.091, 0"
"92, 0.092, 0"
"93, 0.093, 0"
"94, 0.094, 0"
"95, 0.095, 0"
"96, 0.096, 0"
"97, 0.097, 0"
"98, 0.098, 0"
"99, 0.099, 0"
# Parameter File: simulacao.txt
# Results for scorer: HistogramaDose12
# Scored in component: 12Microtitulacao
# DoseToMedium ( Gy ) : Sum
4.151828620485576e-12
# Parameter File: simulacao.txt
# Results for Scorer: HistogramaDose13
# Scored in component: 13Microtitulacao
# Cumulative Volume Histogram over number of voxels: 1
"# BinNumber, LowerLimit of DoseToMedium ( Gy ), Value"
"0, 0, 1"
"1, 0.001, 0"
"2, 0.002, 0"
"3, 0.003, 0"
"4, 0.004, 0"
"5, 0.005, 0"
"6, 0.006, 0"
"7, 0.007, 0"
"8, 0.008, 0"
"9, 0.009000000000000001, 0"
"10, 0.01, 0"
"11, 0.011, 0"
"12, 0.012, 0"
"13, 0.013, 0"
"14, 0.014, 0"
"15, 0.015, 0"
"16, 0.016, 0"
"17, 0.017, 0"
"18, 0.018, 0"
"19, 0.019, 0"
"20, 0.02, 0"
"21, 0.021, 0"
"22, 0.022, 0"
"23, 0.023, 0"
"24, 0.024, 0"
"25, 0.025, 0"
"26, 0.026, 0"
"27, 0.027, 0"
"28, 0.028, 0"
"29, 0.029, 0"
"30, 0.03, 0"
"31, 0.031, 0"
"32, 0.032, 0"
"33, 0.033, 0"
"34, 0.034, 0"
"35, 0.035, 0"
"36, 0.036, 0"
"37, 0.037, 0"
"38, 0.038, 0"
"39, 0.039, 0"
"40, 0.04, 0"
"41, 0.041, 0"
"42, 0.042, 0"
"43, 0.043, 0"
"44, 0.044, 0"
"45, 0.045, 0"
"46, 0.046, 0"
"47, 0.047, 0"
"48, 0.048, 0"
"49, 0.049, 0"
"50, 0.05, 0"
"51, 0.051, 0"
"52, 0.052, 0"
"53, 0.053, 0"
"54, 0.054, 0"
"55, 0.055, 0"
"56, 0.056, 0"
"57, 0.057, 0"
"58, 0.058, 0"
"59, 0.059, 0"
"60, 0.06, 0"
"61, 0.061, 0"
"62, 0.062, 0"
"63, 0.063, 0"
"64, 0.064, 0"
"65, 0.065, 0"
"66, 0.066, 0"
"67, 0.067, 0"
"68, 0.068, 0"
"69, 0.06900000000000001, 0"
"70, 0.07000000000000001, 0"
"71, 0.07100000000000001, 0"
"72, 0.07200000000000001, 0"
"73, 0.073, 0"
"74, 0.074, 0"
"75, 0.075, 0"
"76, 0.076, 0"
"77, 0.077, 0"
"78, 0.078, 0"
"79, 0.079, 0"
"80, 0.08, 0"
"81, 0.081, 0"
"82, 0.082, 0"
"83, 0.083, 0"
"84, 0.08400000000000001, 0"
"85, 0.08500000000000001, 0"
"86, 0.08600000000000001, 0"
"87, 0.08700000000000001, 0"
"88, 0.08799999999999999, 0"
"89, 0.089, 0"
"90, 0.09, 0"
"91, 0.091, 0"
"92, 0.092, 0"
"93, 0.093, 0"
"94, 0.094, 0"
"95, 0.095, 0"
"96, 0.096, 0"
"97, 0.097, 0"
"98, 0.098, 0"
"99, 0.099, 0"
# Parameter File: simulacao.txt
# Results for scorer: HistogramaDose13
# Scored in component: 13Microtitulacao
# DoseToMedium ( Gy ) : Sum
0
# Parameter File: simulacao.txt
# Results for Scorer: HistogramaDose14
# Scored in component: 14Microtitulacao
# Cumulative Volume Histogram over number of voxels: 1
"# BinNumber, LowerLimit of DoseToMedium ( Gy ), Value"
"0, 0, 1"
"1, 0.001, 0"
"2, 0.002, 0"
"3, 0.003, 0"
"4, 0.004, 0"
"5, 0.005, 0"
"6, 0.006, 0"
"7, 0.007, 0"
"8, 0.008, 0"
"9, 0.009000000000000001, 0"
"10, 0.01, 0"
"11, 0.011, 0"
"12, 0.012, 0"
"13, 0.013, 0"
"14, 0.014, 0"
"15, 0.015, 0"
"16, 0.016, 0"
"17, 0.017, 0"
"18, 0.018, 0"
"19, 0.019, 0"
"20, 0.02, 0"
"21, 0.021, 0"
"22, 0.022, 0"
"23, 0.023, 0"
"24, 0.024, 0"
"25, 0.025, 0"
"26, 0.026, 0"
"27, 0.027, 0"
"28, 0.028, 0"
"29, 0.029, 0"
"30, 0.03, 0"
"31, 0.031, 0"
"32, 0.032, 0"
"33, 0.033, 0"
"34, 0.034, 0"
"35, 0.035, 0"
"36, 0.036, 0"
"37, 0.037, 0"
"38, 0.038, 0"
"39, 0.039, 0"
"40, 0.04, 0"
"41, 0.041, 0"
"42, 0.042, 0"
"43, 0.043, 0"
"44, 0.044, 0"
"45, 0.045, 0"
"46, 0.046, 0"
"47, 0.047, 0"
"48, 0.048, 0"
"49, 0.049, 0"
"50, 0.05, 0"
"51, 0.051, 0"
"52, 0.052, 0"
"53, 0.053, 0"
"54, 0.054, 0"
"55, 0.055, 0"
"56, 0.056, 0"
"57, 0.057, 0"
"58, 0.058, 0"
"59, 0.059, 0"
"60, 0.06, 0"
"61, 0.061, 0"
"62, 0.062, 0"
"63, 0.063, 0"
"64, 0.064, 0"
"65, 0.065, 0"
"66, 0.066, 0"
"67, 0.067, 0"
"68, 0.068, 0"
"69, 0.06900000000000001, 0"
"70, 0.07000000000000001, 0"
"71, 0.07100000000000001, 0"
"72, 0.07200000000000001, 0"
"73, 0.073, 0"
"74, 0.074, 0"
"75, 0.075, 0"
"76, 0.076, 0"
"77, 0.077, 0"
"78, 0.078, 0"
"79, 0.079, 0"
"80, 0.08, 0"
"81, 0.081, 0"
"82, 0.082, 0"
"83, 0.083, 0"
"84, 0.08400000000000001, 0"
"85, 0.08500000000000001, 0"
"86, 0.08600000000000001, 0"
"87, 0.08700000000000001, 0"
"88, 0.08799999999999999, 0"
"89, 0.089, 0"
"90, 0.09, 0"
"91, 0.091, 0"
"92, 0.092, 0"
"93, 0.093, 0"
"94, 0.094, 0"
"95, 0.095, 0"
"96, 0.096, 0"
"97, 0.097, 0"
"98, 0.098, 0"
"99, 0.099, 0"
# Parameter File: simulacao.txt
# Results for scorer: HistogramaDose14
# Scored in component: 14Microtitulacao
# DoseToMedium ( Gy ) : Sum
0
# Parameter File: simulacao.txt
# Results for Scorer: HistogramaDose2
# Scored in component: 2Microtitulacao
# Cumulative Volume Histogram over number of voxels: 1
"# BinNumber, LowerLimit of DoseToMedium ( Gy ), Value"
"0, 0, 1"
"1, 0.001, 0"
"2, 0.002, 0"
"3, 0.003, 0"
"4, 0.004, 0"
"5, 0.005, 0"
"6, 0.006, 0"
"7, 0.007, 0"
"8, 0.008, 0"
"9, 0.009000000000000001, 0"
"10, 0.01, 0"
"11, 0.011, 0"
"12, 0.012, 0"
"13, 0.013, 0"
"14, 0.014, 0"
"15, 0.015, 0"
"16, 0.016, 0"
"17, 0.017, 0"
"18, 0.018, 0"
"19, 0.019, 0"
"20, 0.02, 0"
"21, 0.021, 0"
"22, 0.022, 0"
"23, 0.023, 0"
"24, 0.024, 0"
"25, 0.025, 0"
"26, 0.026, 0"
"27, 0.027, 0"
"28, 0.028, 0"
"29, 0.029, 0"
"30, 0.03, 0"
"31, 0.031, 0"
"32, 0.032, 0"
"33, 0.033, 0"
"34, 0.034, 0"
"35, 0.035, 0"
"36, 0.036, 0"
"37, 0.037, 0"
"38, 0.038, 0"
"39, 0.039, 0"
"40, 0.04, 0"
"41, 0.041, 0"
"42, 0.042, 0"
"43, 0.043, 0"
"44, 0.044, 0"
"45, 0.045, 0"
"46, 0.046, 0"
"47, 0.047, 0"
"48, 0.048, 0"
"49, 0.049, 0"
"50, 0.05, 0"
"51, 0.051, 0"
"52, 0.052, 0"
"53, 0.053, 0"
"54, 0.054, 0"
"55, 0.055, 0"
"56, 0.056, 0"
"57, 0.057, 0"
"58, 0.058, 0"
"59, 0.059, 0"
"60, 0.06, 0"
"61, 0.061, 0"
"62, 0.062, 0"
"63, 0.063, 0"
"64, 0.064, 0"
"65, 0.065, 0"
"66, 0.066, 0"
"67, 0.067, 0"
"68, 0.068, 0"
"69, 0.06900000000000001, 0"
"70, 0.07000000000000001, 0"
"71, 0.07100000000000001, 0"
"72, 0.07200000000000001, 0"
"73, 0.073, 0"
"74, 0.074, 0"
"75, 0.075, 0"
"76, 0.076, 0"
"77, 0.077, 0"
"78, 0.078, 0"
"79, 0.079, 0"
"80, 0.08, 0"
"81, 0.081, 0"
"82, 0.082, 0"
"83, 0.083, 0"
"84, 0.08400000000000001, 0"
"85, 0.08500000000000001, 0"
"86, 0.08600000000000001, 0"
"87, 0.08700000000000001, 0"
"88, 0.08799999999999999, 0"
"89, 0.089, 0"
"90, 0.09, 0"
"91, 0.091, 0"
"92, 0.092, 0"
"93, 0.093, 0"
"94, 0.094, 0"
"95, 0.095, 0"
"96, 0.096, 0"
"97, 0.097, 0"
"98, 0.098, 0"
"99, 0.099, 0"
# Parameter File: simulacao.txt
# Results for scorer: HistogramaDose2
# Scored in component: 2Microtitulacao
# DoseToMedium ( Gy ) : Sum
1.106744361954737e-12
# Parameter File: simulacao.txt
# Results for Scorer: HistogramaDose21
# Scored in component: 21Microtitulacao
# Cumulative Volume Histogram over number of voxels: 1
"# BinNumber, LowerLimit of DoseToMedium ( Gy ), Value"
"0, 0, 1"
"1, 0.001, 0"
"2, 0.002, 0"
"3, 0.003, 0"
"4, 0.004, 0"
"5, 0.005, 0"
"6, 0.006, 0"
"7, 0.007, 0"
"8, 0.008, 0"
"9, 0.009000000000000001, 0"
"10, 0.01, 0"
"11, 0.011, 0"
"12, 0.012, 0"
"13, 0.013, 0"
"14, 0.014, 0"
"15, 0.015, 0"
"16, 0.016, 0"
"17, 0.017, 0"
"18, 0.018, 0"
"19, 0.019, 0"
"20, 0.02, 0"
"21, 0.021, 0"
"22, 0.022, 0"
"23, 0.023, 0"
"24, 0.024, 0"
"25, 0.025, 0"
"26, 0.026, 0"
"27, 0.027, 0"
"28, 0.028, 0"
"29, 0.029, 0"
"30, 0.03, 0"
"31, 0.031, 0"
"32, 0.032, 0"
"33, 0.033, 0"
"34, 0.034, 0"
"35, 0.035, 0"
"36, 0.036, 0"
"37, 0.037, 0"
"38, 0.038, 0"
"39, 0.039, 0"
"40, 0.04, 0"
"41, 0.041, 0"
"42, 0.042, 0"
"43, 0.043, 0"
"44, 0.044, 0"
"45, 0.045, 0"
"46, 0.046, 0"
"47, 0.047, 0"
"48, 0.048, 0"
"49, 0.049, 0"
"50, 0.05, 0"
"51, 0.051, 0"
"52, 0.052, 0"
"53, 0.053, 0"
"54, 0.054, 0"
"55, 0.055, 0"
"56, 0.056, 0"
"57, 0.057, 0"
"58, 0.058, 0"
"59, 0.059, 0"
"60, 0.06, 0"
"61, 0.061, 0"
"62, 0.062, 0"
"63, 0.063, 0"
"64, 0.064, 0"
"65, 0.065, 0"
"66, 0.066, 0"
"67, 0.067, 0"
"68, 0.068, 0"
"69, 0.06900000000000001, 0"
"70, 0.07000000000000001, 0"
"71, 0.07100000000000001, 0"
"72, 0.07200000000000001, 0"
"73, 0.073, 0"
"74, 0.074, 0"
"75, 0.075, 0"
"76, 0.076, 0"
"77, 0.077, 0"
"78, 0.078, 0"
"79, 0.079, 0"
"80, 0.08, 0"
"81, 0.081, 0"
"82, 0.082, 0"
"83, 0.083, 0"
"84, 0.08400000000000001, 0"
"85, 0.08500000000000001, 0"
"86, 0.08600000000000001, 0"
"87, 0.08700000000000001, 0"
"88, 0.08799999999999999, 0"
"89, 0.089, 0"
"90, 0.09, 0"
"91, 0.091, 0"
"92, 0.092, 0"
"93, 0.093, 0"
"94, 0.094, 0"
"95, 0.095, 0"
"96, 0.096, 0"
"97, 0.097, 0"
"98, 0.098, 0"
"99, 0.099, 0"
# Parameter File: simulacao.txt
# Results for scorer: HistogramaDose21
# Scored in component: 21Microtitulacao
# DoseToMedium ( Gy ) : Sum
1.255638605243692e-12
# Parameter File: simulacao.txt
# Results for Scorer: HistogramaDose22
# Scored in component: 22Microtitulacao
# Cumulative Volume Histogram over number of voxels: 1
"# BinNumber, LowerLimit of DoseToMedium ( Gy ), Value"
"0, 0, 1"
"1, 0.001, 0"
"2, 0.002, 0"
"3, 0.003, 0"
"4, 0.004, 0"
"5, 0.005, 0"
"6, 0.006, 0"
"7, 0.007, 0"
"8, 0.008, 0"
"9, 0.009000000000000001, 0"
"10, 0.01, 0"
"11, 0.011, 0"
"12, 0.012, 0"
"13, 0.013, 0"
"14, 0.014, 0"
"15, 0.015, 0"
"16, 0.016, 0"
"17, 0.017, 0"
"18, 0.018, 0"
"19, 0.019, 0"
"20, 0.02, 0"
"21, 0.021, 0"
"22, 0.022, 0"
"23, 0.023, 0"
"24, 0.024, 0"
"25, 0.025, 0"
"26, 0.026, 0"
"27, 0.027, 0"
"28, 0.028, 0"
"29, 0.029, 0"
"30, 0.03, 0"
"31, 0.031, 0"
"32, 0.032, 0"
"33, 0.033, 0"
"34, 0.034, 0"
"35, 0.035, 0"
"36, 0.036, 0"
"37, 0.037, 0"
"38, 0.038, 0"
"39, 0.039, 0"
"40, 0.04, 0"
"41, 0.041, 0"
"42, 0.042, 0"
"43, 0.043, 0"
"44, 0.044, 0"
"45, 0.045, 0"
"46, 0.046, 0"
"47, 0.047, 0"
"48, 0.048, 0"
"49, 0.049, 0"
"50, 0.05, 0"
"51, 0.051, 0"
"52, 0.052, 0"
"53, 0.053, 0"
"54, 0.054, 0"
"55, 0.055, 0"
"56, 0.056, 0"
"57, 0.057, 0"
"58, 0.058, 0"
"59, 0.059, 0"
"60, 0.06, 0"
"61, 0.061, 0"
"62, 0.062, 0"
"63, 0.063, 0"
"64, 0.064, 0"
"65, 0.065, 0"
"66, 0.066, 0"
"67, 0.067, 0"
"68, 0.068, 0"
"69, 0.06900000000000001, 0"
"70, 0.07000000000000001, 0"
"71, 0.07100000000000001, 0"
"72, 0.07200000000000001, 0"
"73, 0.073, 0"
"74, 0.074, 0"
"75, 0.075, 0"
"76, 0.076, 0"
"77, 0.077, 0"
"78, 0.078, 0"
"79, 0.079, 0"
"80, 0.08, 0"
"81, 0.081, 0"
"82, 0.082, 0"
"83, 0.083, 0"
"84, 0.08400000000000001, 0"
"85, 0.08500000000000001, 0"
"86, 0.08600000000000001, 0"
"87, 0.08700000000000001, 0"
"88, 0.08799999999999999, 0"
"89, 0.089, 0"
"90, 0.09, 0"
"91, 0.091, 0"
"92, 0.092, 0"
"93, 0.093, 0"
"94, 0.094, 0"
"95, 0.095, 0"
"96, 0.096, 0"
"97, 0.097, 0"
"98, 0.098, 0"
"99, 0.099, 0"
# Parameter File: simulacao.txt
# Results for scorer: HistogramaDose22
# Scored in component: 22Microtitulacao
# DoseToMedium ( Gy ) : Sum
3.275283473255786e-12
# Parameter File: simulacao.txt
# Results for Scorer: HistogramaDose23
# Scored in component: 23Microtitulacao
# Cumulative Volume Histogram over number of voxels: 1
"# BinNumber, LowerLimit of DoseToMedium ( Gy ), Value"
